Sensor Model:   AB100_Probe2
Serial Number:  AB100_P2
Data Format:    4      (Log Ohms vs. Kelvin)
SetPoint Limit: 300.0      (Kelvin)
Temperature coefficient:  1 (Negative)
Number of Breakpoints:   66

No.   Units      Temperature (K)

  1  2.01284       300.000
  2  2.01452       280.000
  3  2.02735       260.000
  4  2.03141       240.000
  5  2.03543       220.000
  6  2.03842       200.000
  7  2.04139       190.000
  8  2.04336       180.000
  9  2.04532       170.000
 10  2.04922       160.000
 11  2.05308       150.000
 12  2.05690       140.000
 13  2.06070       130.000
 14  2.06819       120.000
 15  2.07555       110.000
 16  2.08279       100.000
 17  2.08636        95.000
 18  2.08991        90.000
 19  2.09342        85.000
 20  2.10037        80.000
 21  2.10721        75.000
 22  2.11394        70.000
 23  2.12057        65.000
 24  2.13033        60.000
 25  2.14301        55.000
 26  2.15836        50.000
 27  2.17319        45.000
 28  2.18752        40.000
 29  2.20952        35.000
 30  2.24055        30.000
 31  2.25285        28.000
 32  2.26482        26.000
 33  2.28780        24.000
 34  2.30963        22.000
 35  2.33041        20.000
 36  2.35984        18.000
 37  2.38917        16.000
 38  2.43616        14.000
 39  2.48287        12.000
 40  2.54900        10.000
 41  2.59550         9.000
 42  2.64738         8.000
 43  2.71933         7.000
 44  2.79865         6.000
 45  2.84757         5.500
 46  2.97955         4.500
 47  3.02284         4.200
 48  3.06221         4.000
 49  3.11528         3.750
 50  3.17725         3.500
 51  3.23147         3.250
 52  3.32305         3.000
 53  3.38093         2.800
 54  3.47041         2.600
 55  3.54456         2.400
 56  3.64385         2.200
 57  3.75236         2.000
 58  3.83276         1.900
 59  3.90331         1.800
 60  4.00017         1.700
 61  4.09356         1.600
 62  4.14625         1.550
 63  4.31310         1.400
 64  4.44813         1.300
 65  4.60361         1.200
 66  4.78483         1.100
